EJ-resolved rate constant (10^11 cm^3/sec):

TOTAL:
 T, K         0         1
   10     32.16     31.88
   20     40.34     40.15
 30.5     46.98     46.82
41.53     51.83     51.66
 53.1     55.39     55.18
65.26     58.04     57.72
78.02     59.99     59.48
91.42      61.4     60.59
105.5     62.35     61.12
120.3     62.89     61.16
135.8     63.09     60.75
152.1     62.97     59.99
169.2     62.58     58.95
187.1     61.96     57.69
  206     61.16     56.29
225.8     60.22      54.8
246.6     59.18     53.27
268.4     58.08     51.73
291.3     56.93     50.21
315.4     55.78     48.74
340.7     54.63     47.32
367.2      53.5     45.97
395.1      52.4     44.69
424.3     51.35     43.48
  455     50.34     42.34
487.3     49.38     41.26
521.1     48.47     40.26
556.7     47.62     39.31
  594     46.82     38.42
633.2     46.08     37.58
674.4     45.38     36.79
717.6     44.74     36.03
  763     44.14     35.32
810.6     43.58     34.63
860.7     43.06     33.98
913.2     42.58     33.34
968.4     42.14     32.74
 1026     41.73     32.15
 1087     41.34     31.58
 1151     40.98     31.02
 1218     40.65     30.49
 1288     40.34     29.97
 1362     40.05     29.46
 1440     39.78     28.97
 1521     39.53     28.49
 1607     39.29     28.02
 1697     39.07     27.56
 1791     38.86     27.12
 1890     38.66      26.7
 1994     38.48     26.28
 2103     38.31     25.88

FACE = 0
 T, K         0         1
   10     32.16     31.88
   20     40.33     40.15
 30.5     46.95     46.79
41.53      51.6     51.41
 53.1      54.7     54.31
65.26     56.58     55.69
78.02     57.44     55.75
91.42      57.4     54.71
105.5     56.56     52.78
120.3     55.03     50.16
135.8     52.93     47.06
152.1     50.38     43.68
169.2     47.52     40.17
187.1     44.46     36.68
  206     41.32     33.34
225.8     38.19      30.2
246.6     35.15     27.33
268.4     32.27     24.74
291.3     29.59     22.44
315.4     27.13     20.42
340.7      24.9     18.65
367.2      22.9     17.12
395.1     21.14      15.8
424.3     19.58     14.67
  455     18.22      13.7
487.3     17.04     12.87
521.1     16.02     12.15
556.7     15.13     11.54
  594     14.37     11.01
633.2     13.72     10.55
674.4     13.15     10.15
717.6     12.67      9.81
  763     12.25     9.509
810.6     11.89     9.244
860.7     11.58      9.01
913.2     11.31     8.801
968.4     11.08     8.613
 1026     10.88     8.442
 1087     10.71     8.285
 1151     10.56     8.137
 1218     10.43     7.996
 1288     10.33      7.86
 1362     10.24     7.726
 1440     10.16     7.592
 1521      10.1     7.458
 1607     10.05     7.321
 1697        10     7.182
 1791     9.965     7.041
 1890     9.928     6.896
 1994     9.892      6.75
 2103     9.855     6.602
FACE = 1
 T, K         0         1
   10 1.562e-10 1.489e-10
   20 0.0001609 0.0001538
 30.5   0.01152   0.01136
41.53   0.08144   0.08821
 53.1     0.244    0.2991
65.26    0.5034     0.683
78.02    0.8675     1.243
91.42     1.347     1.955
105.5     1.943      2.78
120.3     2.642     3.674
135.8     3.418     4.589
152.1     4.241     5.483
169.2     5.081     6.319
187.1     5.909     7.068
  206     6.698     7.713
225.8     7.428     8.244
246.6     8.082      8.66
268.4      8.65     8.966
291.3     9.127      9.17
315.4     9.512     9.285
340.7     9.808     9.324
367.2     10.02       9.3
395.1     10.16     9.227
424.3     10.24     9.116
  455     10.26     8.977
487.3     10.24     8.821
521.1     10.18     8.655
556.7      10.1     8.484
  594     10.01     8.312
633.2     9.898     8.144
674.4     9.785     7.982
717.6      9.67     7.826
  763     9.558     7.677
810.6     9.451     7.535
860.7     9.351       7.4
913.2     9.258     7.272
968.4     9.174     7.149
 1026     9.097     7.031
 1087     9.029     6.916
 1151     8.968     6.804
 1218     8.915     6.694
 1288     8.868     6.585
 1362     8.826     6.477
 1440      8.79     6.368
 1521     8.758      6.26
 1607     8.729     6.151
 1697     8.703     6.041
 1791     8.679     5.932
 1890     8.656     5.822
 1994     8.634     5.713
 2103     8.613     5.606
FACE = 2
 T, K         0         1
   10 1.414e-10  1.35e-10
   20 0.0001479 0.0001416
 30.5   0.01077   0.01074
41.53   0.07781    0.0862
 53.1    0.2385     0.299
65.26    0.4995    0.6859
78.02    0.8622     1.237
91.42     1.327     1.917
105.5     1.887     2.684
120.3      2.53       3.5
135.8     3.236     4.327
152.1     3.984     5.134
169.2     4.752     5.897
187.1     5.518     6.594
  206     6.262     7.216
225.8     6.968     7.755
246.6     7.624     8.212
268.4     8.222      8.59
291.3     8.757     8.896
315.4     9.229     9.136
340.7     9.637     9.318
367.2     9.986      9.45
395.1     10.28     9.538
424.3     10.52     9.588
  455     10.72     9.606
487.3     10.87     9.596
521.1     10.99     9.562
556.7     11.08     9.506
  594     11.14     9.432
633.2     11.17     9.342
674.4     11.19     9.238
717.6     11.18     9.122
  763     11.16     8.995
810.6     11.13      8.86
860.7     11.09     8.718
913.2     11.03     8.571
968.4     10.97     8.423
 1026      10.9     8.274
 1087     10.83     8.128
 1151     10.75     7.987
 1218     10.67     7.853
 1288     10.58     7.727
 1362      10.5     7.613
 1440     10.41     7.511
 1521     10.32     7.422
 1607     10.24     7.346
 1697     10.16     7.284
 1791     10.09     7.234
 1890     10.02     7.196
 1994     9.966     7.169
 2103     9.919      7.15
FACE = 3
 T, K         0         1
   10 1.207e-10 1.156e-10
   20 0.0001252 0.0001202
 30.5  0.009066  0.009137
41.53   0.06599   0.07556
 53.1    0.2079    0.2754
65.26    0.4551    0.6645
78.02    0.8258     1.252
91.42      1.33     2.006
105.5      1.96     2.879
120.3     2.694     3.818
135.8     3.504     4.773
152.1     4.357     5.701
169.2     5.223     6.566
187.1     6.073     7.346
  206     6.884     8.024
225.8     7.639     8.597
246.6     8.325     9.063
268.4     8.934      9.43
291.3     9.463     9.705
315.4     9.912     9.901
340.7     10.29     10.03
367.2     10.59      10.1
395.1     10.83     10.12
424.3     11.01      10.1
  455     11.14     10.05
487.3     11.23     9.979
521.1     11.28     9.888
556.7     11.31     9.783
  594     11.31     9.667
633.2     11.29     9.542
674.4     11.26     9.411
717.6     11.21     9.276
  763     11.16     9.136
810.6     11.11     8.993
860.7     11.05     8.848
913.2     10.98       8.7
968.4     10.91     8.551
 1026     10.85       8.4
 1087     10.78     8.249
 1151     10.71     8.097
 1218     10.63     7.946
 1288     10.56     7.794
 1362     10.49     7.644
 1440     10.42     7.494
 1521     10.34     7.347
 1607     10.27     7.201
 1697      10.2     7.058
 1791     10.13     6.918
 1890     10.06     6.781
 1994     9.988     6.649
 2103     9.921     6.521

Microcannonical rate constant (10^11 cm^3/sec):

TOTAL:
 T, K         0         1
   10     32.15     31.87
   20     40.72     40.54
 30.5     48.85     48.71
41.53     56.03      55.9
 53.1     62.16     62.01
65.26     67.18     66.92
78.02     71.09     70.54
91.42      73.9     72.84
105.5     75.68     73.86
120.3     76.51     73.77
135.8     76.51     72.78
152.1     75.83      71.1
169.2     74.61     68.96
187.1     72.98     66.54
  206     71.09     63.99
225.8     69.04     61.43
246.6     66.92     58.92
268.4      64.8     56.51
291.3     62.73     54.25
315.4     60.75     52.14
340.7     58.87     50.18
367.2     57.11     48.38
395.1     55.47     46.72
424.3     53.95      45.2
  455     52.55      43.8
487.3     51.26     42.51
521.1     50.07     41.33
556.7     48.99     40.24
  594     47.99     39.23
633.2     47.08     38.29
674.4     46.25     37.42
717.6     45.49     36.59
  763     44.79     35.82
810.6     44.15     35.09
860.7     43.57     34.39
913.2     43.03     33.72
968.4     42.54     33.09
 1026     42.08     32.47
 1087     41.66     31.88
 1151     41.27     31.32
 1218     40.91     30.77
 1288     40.58     30.24
 1362     40.27     29.73
 1440     39.98     29.23
 1521     39.71     28.76
 1607     39.46      28.3
 1697     39.23     27.85
 1791     39.01     27.42
 1890     38.81        27
 1994     38.62      26.6
 2103     38.45     26.21

FACE = 0
 T, K         0         1
   10     32.15     31.87
   20     40.72     40.54
 30.5     48.85     48.71
41.53     56.03     55.88
 53.1     62.12     61.79
65.26     66.92     65.84
78.02     70.06     67.45
91.42     71.22     66.51
105.5     70.34     63.42
120.3     67.66     58.84
135.8     63.64     53.49
152.1     58.77     47.91
169.2     53.53     42.51
187.1     48.26     37.53
  206     43.23     33.08
225.8     38.59     29.19
246.6     34.43     25.86
268.4     30.75     23.03
291.3     27.56     20.65
315.4     24.83     18.66
340.7      22.5        17
367.2     20.53     15.61
395.1     18.87     14.46
424.3     17.48     13.49
  455     16.32     12.68
487.3     15.34        12
521.1     14.53     11.42
556.7     13.84     10.93
  594     13.26     10.51
633.2     12.77     10.14
674.4     12.36     9.823
717.6        12     9.545
  763      11.7       9.3
810.6     11.44     9.082
860.7     11.21     8.889
913.2     11.01     8.715
968.4     10.84     8.557
 1026     10.69     8.413
 1087     10.56     8.279
 1151     10.45     8.154
 1218     10.36     8.033
 1288     10.28     7.917
 1362     10.21     7.801
 1440     10.15     7.685
 1521     10.11     7.567
 1607     10.07     7.446
 1697     10.04      7.32
 1791     10.01      7.19
 1890     9.984     7.055
 1994     9.959     6.916
 2103     9.933     6.773
FACE = 1
 T, K         0         1
   10 6.834e-28  2.57e-22
   20 8.095e-12 3.477e-09
 30.5 1.379e-06 5.862e-05
41.53 0.0004381  0.005828
 53.1   0.01161   0.07699
65.26   0.09088    0.3795
78.02    0.3594     1.081
91.42    0.9368     2.208
105.5     1.862      3.64
120.3      3.08     5.192
135.8     4.472     6.695
152.1     5.911     8.032
169.2     7.287     9.141
187.1     8.526        10
  206     9.584     10.63
225.8     10.45     11.04
246.6     11.12     11.28
268.4     11.61     11.36
291.3     11.94     11.33
315.4     12.14      11.2
340.7     12.22     11.01
367.2      12.2     10.77
395.1     12.12      10.5
424.3     11.97     10.22
  455     11.79      9.92
487.3     11.57     9.627
521.1     11.34      9.34
556.7     11.11     9.066
  594     10.87     8.806
633.2     10.64     8.563
674.4     10.41     8.337
717.6     10.21     8.127
  763     10.01     7.933
810.6     9.837     7.754
860.7     9.678     7.588
913.2     9.535     7.434
968.4     9.408      7.29
 1026     9.296     7.155
 1087     9.198     7.028
 1151     9.112     6.907
 1218     9.038      6.79
 1288     8.974     6.677
 1362     8.918     6.567
 1440      8.87     6.458
 1521     8.829      6.35
 1607     8.792     6.243
 1697      8.76     6.135
 1791     8.732     6.027
 1890     8.705     5.919
 1994     8.681     5.811
 2103     8.658     5.704
FACE = 2
 T, K         0         1
   10 5.762e-28 2.169e-22
   20 6.826e-12 2.933e-09
 30.5 1.163e-06 4.946e-05
41.53 0.0003698   0.00492
 53.1  0.009825   0.06512
65.26   0.07717     0.322
78.02    0.3066    0.9207
91.42    0.8036     1.889
105.5     1.607     3.129
120.3     2.675     4.487
135.8      3.91     5.817
152.1     5.201     7.018
169.2     6.455     8.035
187.1     7.602     8.851
  206     8.603     9.475
225.8     9.445     9.929
246.6     10.13     10.24
268.4     10.67     10.44
291.3     11.08     10.56
315.4     11.39     10.61
340.7     11.61      10.6
367.2     11.76     10.57
395.1     11.86      10.5
424.3     11.91     10.42
  455     11.93     10.32
487.3     11.93     10.21
521.1     11.91      10.1
556.7     11.87     9.969
  594     11.82     9.835
633.2     11.76     9.693
674.4     11.69     9.546
717.6     11.62     9.392
  763     11.54     9.233
810.6     11.46     9.068
860.7     11.37       8.9
913.2     11.28      8.73
968.4     11.19     8.558
 1026     11.09     8.388
 1087     10.99      8.22
 1151     10.89     8.058
 1218     10.79     7.904
 1288     10.69      7.76
 1362     10.59     7.628
 1440     10.48      7.51
 1521     10.39     7.409
 1607     10.29     7.323
 1697      10.2     7.254
 1791     10.11     7.202
 1890     10.04     7.165
 1994     9.973     7.142
 2103     9.919      7.13
FACE = 3
 T, K         0         1
   10 6.821e-28 2.593e-22
   20  8.08e-12 3.506e-09
 30.5 1.376e-06 5.909e-05
41.53 0.0004374  0.005872
 53.1    0.0116   0.07758
65.26   0.09085    0.3826
78.02    0.3596     1.091
91.42    0.9385     2.229
105.5     1.868     3.678
120.3     3.092     5.251
135.8     4.495     6.778
152.1     5.948     8.138
169.2     7.339     9.271
187.1     8.595     10.16
  206     9.671     10.81
225.8     10.55     11.26
246.6     11.25     11.54
268.4     11.77     11.68
291.3     12.15     11.71
315.4      12.4     11.67
340.7     12.55     11.57
367.2     12.62     11.42
395.1     12.62     11.25
424.3     12.58     11.07
  455     12.51     10.87
487.3     12.41     10.67
521.1      12.3     10.47
556.7     12.17     10.28
  594     12.05     10.08
633.2     11.92     9.896
674.4     11.79     9.711
717.6     11.66     9.532
  763     11.54     9.355
810.6     11.42     9.183
860.7     11.31     9.013
913.2     11.21     8.846
968.4      11.1     8.681
 1026     11.01     8.517
 1087     10.91     8.356
 1151     10.82     8.197
 1218     10.73      8.04
 1288     10.64     7.884
 1362     10.56     7.731
 1440     10.47      7.58
 1521     10.39     7.432
 1607     10.31     7.286
 1697     10.23     7.142
 1791     10.16     7.002
 1890     10.08     6.865
 1994     10.01     6.732
 2103     9.942     6.603

Cannonical rate constant (10^11 cm^3/sec):

TOTAL:
 T, K                 0                 1
   10     32.17(4.1| 6)     31.89(4.1| 6)
   20     40.73(2.1| 6)     40.55(2.1| 6)
 30.5     48.89(1.4| 6)     48.75(1.4| 6)
41.53     56.35(  1| 6)     56.23(  1| 6)
 53.1     63.29(< 1| 6)     63.19(< 1| 6)
65.26     69.87(< 1| 6)     69.77(< 1| 6)
78.02     76.17(< 1| 6)     76.09(< 1| 6)
91.42     79.57(< 1| 5)      79.4(< 1| 5)
105.5     83.04(< 1| 5)     82.89(< 1| 5)
120.3     86.65(< 1| 5)     86.51(< 1| 5)
135.8     90.37(< 1| 5)     90.24(< 1| 5)
152.1     89.97(< 1| 2)     89.42(< 1| 2)
169.2     88.79(< 1| 2)      88.3(< 1| 2)
187.1     88.24(< 1| 2)      87.8(< 1| 2)
  206     88.16(< 1| 2)     87.76(< 1| 2)
225.8     88.46(< 1| 2)     88.09(< 1| 2)
246.6     89.06(< 1| 2)     83.93(6.6|10)
268.4     88.89(4.8| 0)     78.05(6.3|10)
291.3     83.61(5.8|10)      73.7(6.1|10)
315.4     79.53(5.6|10)     70.48(5.8|10)
340.7     76.47(5.4|10)     64.86(7.9|11)
367.2     74.04(7.2|11)     59.84(7.6|11)
395.1      68.7(6.9|11)     56.01(7.3|11)
424.3     64.56(6.7|11)     53.08(7.1|11)
  455     61.36(6.5|11)     50.83(6.8|11)
487.3     58.89(6.3|11)     49.14(6.6|11)
521.1        57(6.1|11)     47.88(6.4|11)
556.7     55.58(5.9|11)     46.99(6.2|11)
  594     54.56(5.7|11)     46.41(  6|11)
633.2     53.87(5.5|11)     46.08(5.8|11)
674.4     53.46(5.4|11)     45.98(5.7|11)
717.6     53.29(5.2|11)     44.99(7.3|12)
  763     53.34(5.1|11)     43.14(7.1|12)
810.6     52.94(6.4|12)     41.68(6.8|12)
860.7      51.1(6.2|12)     40.56(6.6|12)
913.2     49.66(6.1|12)     39.71(6.4|12)
968.4     48.55(5.9|12)     39.12(6.3|12)
 1026     47.74(5.7|12)     38.73(6.1|12)
 1087     47.17(5.6|12)     38.53(5.9|12)
 1151     46.84(5.4|12)     38.49(5.7|12)
 1218     46.69(5.2|12)     38.61(5.6|12)
 1288     46.73(5.1|12)     38.22(7.3|13)
 1362     46.94(  5|12)     36.94(7.1|13)
 1440     47.29(4.8|12)     35.93(6.9|13)
 1521     47.79(4.7|12)     35.14(6.7|13)
 1607     46.96(  6|13)     34.54(6.5|13)
 1697     45.94(5.8|13)     34.13(6.3|13)
 1791     45.16(5.7|13)     33.87(6.1|13)
 1890     44.61(5.5|13)     33.75(  6|13)
 1994     44.24(5.4|13)     33.71(6.1|14)
 2103     44.05(5.2|13)     32.38(5.9|14)

FACE = 0
 T, K         0         1
   10     32.17     31.89
   20     40.73     40.55
 30.5     48.89     48.75
41.53     56.35     56.23
 53.1     63.29     63.19
65.26     69.87     69.77
78.02     76.17     76.09
91.42     79.57      79.4
105.5     83.04     82.89
120.3     86.65     86.51
135.8     90.37     90.24
152.1     89.97     89.42
169.2     88.79      88.3
187.1     88.24      87.8
  206     88.16     87.76
225.8     88.46     88.09
246.6     89.06     22.79
268.4     88.89     21.17
291.3     22.64     19.96
315.4      21.5     19.06
340.7     20.64     15.61
367.2     17.79     14.42
395.1      16.5     13.51
424.3      15.5      12.8
  455     14.72     12.25
487.3     14.11     11.84
521.1     13.64     11.52
556.7     13.28      11.3
  594     13.02     11.14
633.2     12.83     11.05
674.4     12.72     11.01
717.6     12.66      11.5
  763     12.66     11.01
810.6     13.53     10.63
860.7     13.05     10.33
913.2     12.66     10.11
968.4     12.37     9.945
 1026     12.15     9.839
 1087        12     9.781
 1151     11.91     9.767
 1218     11.87     9.792
 1288     11.87     9.338
 1362     11.93     9.027
 1440     12.02     8.778
 1521     12.14     8.582
 1607     11.46     8.433
 1697      11.2     8.325
 1791     10.99     8.254
 1890     10.84     8.216
 1994     10.73     9.914
 2103     10.67     9.465
FACE = 1
 T, K         0         1
   10         0         0
   20         0         0
 30.5         0         0
41.53         0         0
 53.1         0         0
65.26         0         0
78.02         0         0
91.42         0         0
105.5         0         0
120.3         0         0
135.8         0         0
152.1         0         0
169.2         0         0
187.1         0         0
  206         0         0
225.8         0         0
246.6         0     21.19
268.4         0     19.76
291.3      21.2     18.69
315.4     20.16     17.88
340.7     19.37     16.91
367.2     19.23     15.57
395.1     17.82     14.55
424.3     16.74     13.77
  455     15.91     13.18
487.3     15.28     12.73
521.1      14.8     12.41
556.7     14.44     12.18
  594     14.19     12.04
633.2     14.03     11.96
674.4     13.95     11.95
717.6     13.93     8.941
  763     13.96     8.632
810.6     10.72     8.394
860.7      10.4     8.217
913.2     10.16     8.091
968.4     9.983     8.011
 1026     9.859      7.97
 1087     9.785     7.965
 1151     9.754     7.992
 1218     9.762     8.049
 1288     9.807     8.649
 1362     9.885     8.339
 1440     9.994     8.094
 1521     10.13     7.904
 1607      10.6     7.763
 1697     10.38     7.665
 1791     10.21     7.606
 1890      10.1     7.581
 1994     10.03       7.5
 2103     10.01      7.24
FACE = 2
 T, K         0         1
   10         0         0
   20         0         0
 30.5         0         0
41.53         0         0
 53.1         0         0
65.26         0         0
78.02         0         0
91.42         0         0
105.5         0         0
120.3         0         0
135.8         0         0
152.1         0         0
169.2         0         0
187.1         0         0
  206         0         0
225.8         0         0
246.6         0     18.21
268.4         0     16.93
291.3     18.21        16
315.4     17.33     15.31
340.7     16.69     15.03
367.2     17.48     13.97
395.1     16.32     13.17
424.3     15.42     12.55
  455     14.74     12.09
487.3     14.21     11.75
521.1     13.81     11.51
556.7     13.52     11.34
  594     13.32     11.25
633.2     13.19     11.21
674.4     13.13     11.22
717.6     13.12     12.65
  763     13.16     12.09
810.6     14.72     11.64
860.7     14.18      11.3
913.2     13.75     11.04
968.4     13.42     10.85
 1026     13.17     10.72
 1087        13     10.64
 1151     12.88     10.61
 1218     12.82     10.62
 1288     12.81     10.08
 1362     12.85     9.747
 1440     12.92     9.483
 1521     13.04      9.28
 1607     12.42      9.13
 1697     12.17     9.028
 1791     11.97     8.967
 1890     11.84     8.945
 1994     11.76     7.774
